X,X1.25,X0.75,X1,X0.5,X0.75,X1.75,X0.75,X1,X1.5,X0.75,X1,X1.5,X1.25,X0.75,X1,X1.25,X1
wavelength,StationMAN-F21,StationMAN-F22,StationMAN-R22,StationMAN-R23,StationMAN-R25,StationMAN-F0,StationMAN-F03.5,StationMAN-F08,StationMAN-F14,StationMAN-R12B,StationMAN-R13,StationMAN-R15,StationOUT-R07,StationOUT-R08,StationOUT-R09,StationMAN-R06,StationMAN-R07
399.1,1.757078658,1.451301938,2.264957888,2.253278965,0.773306911,1.795910673,1.670381367,2.578261523,1.685032535,3.436196144,1.801349455,0.836770789,2.410557247,2.303891427,2.188161444,1.939146771,1.668285381
403.2,1.6902856,1.393562327,2.171350888,2.155716007,0.747460778,1.719526398,1.600443626,2.459166054,1.608915446,3.315741904,1.73095266,0.805168389,2.307404283,2.241553589,2.093916723,1.853250196,1.582539952
407.5,1.607704973,1.318226698,2.055494228,2.052132968,0.719101588,1.641584827,1.52126148,2.325077643,1.524931264,3.15705241,1.650814457,0.767982583,2.185014095,2.132962321,1.978064373,1.76807888,1.511145108
411.7,1.530602004,1.256915467,1.943863869,1.938312019,0.692991665,1.550167939,1.437920831,2.190021171,1.438106148,2.989914185,1.561532359,0.726524136,2.06785426,2.013788272,1.885748023,1.665444765,1.425461415
415.5,1.453398239,1.197796326,1.834765163,1.837979083,0.664626402,1.464717181,1.368542466,2.058782223,1.363734553,2.843019435,1.47421336,0.696837186,1.956972452,1.912853005,1.772017879,1.565944777,1.343929843
420.3,1.372890252,1.128879893,1.725239092,1.735054149,0.634817933,1.377740526,1.28460212,1.931243336,1.283027893,2.680047763,1.394623856,0.656219666,1.834209048,1.804275667,1.666593258,1.475564599,1.260872256
425.3,1.29614694,1.069585279,1.622977273,1.637664413,0.607873031,1.292838394,1.208788739,1.812039203,1.205845564,2.530084974,1.309868687,0.617440007,1.719111722,1.695539285,1.570225016,1.38095266,1.181604161
429.9,1.226026226,1.015976597,1.526839158,1.542703679,0.58192049,1.214532216,1.134296487,1.694125965,1.137363798,2.387184784,1.226947314,0.585336799,1.615464877,1.594849627,1.473079331,1.29181663,1.104458335
434.3,1.153867911,0.961739167,1.430833448,1.452859727,0.556081495,1.138798209,1.068376173,1.585241556,1.071738056,2.248153679,1.15038358,0.551103202,1.51338337,1.503187551,1.378822612,1.211440658,1.035167057
438.9,1.086619037,0.903741835,1.340615673,1.36597954,0.527183843,1.067514988,0.997426094,1.481510402,1.005771918,2.113795215,1.079025043,0.517603077,1.416084894,1.408014306,1.295048362,1.13335747,0.971161701
443.3,1.025179505,0.854889839,1.259284729,1.282437717,0.501999543,1.002804951,0.937331678,1.388009185,0.945475359,1.992868739,1.012225289,0.490739162,1.331033085,1.321942788,1.215859827,1.060629486,0.907502479
448.6,0.962994423,0.804002481,1.179970898,1.205555519,0.474909492,0.93844972,0.878857656,1.299969613,0.889162309,1.879912253,0.95020511,0.460413152,1.249285934,1.245979644,1.144805571,0.993968112,0.847577245
453.4,0.908400224,0.758330854,1.109140442,1.135298081,0.451118838,0.882629134,0.826238593,1.220475192,0.837424826,1.775892996,0.894681707,0.434598227,1.172209613,1.174685254,1.075539793,0.934893484,0.796405157
458.2,0.857139084,0.717652336,1.043602079,1.069971629,0.429621711,0.830653366,0.777736351,1.145270842,0.789917853,1.683399552,0.841203482,0.41053422,1.103131129,1.104860303,1.016087133,0.877687018,0.747054022
462.9,0.809082489,0.679954433,0.98338012,1.009492145,0.409169818,0.783118266,0.732182536,1.07819824,0.747766653,1.597414797,0.792375184,0.389751787,1.040514384,1.046370295,0.957477987,0.82561247,0.702346898
467.6,0.764228754,0.6419509,0.927750413,0.953957637,0.389435822,0.739311861,0.689852002,1.015999735,0.706286944,1.515904852,0.749518585,0.367883175,0.981999336,0.990581172,0.905430235,0.778809315,0.662371839
472.7,0.722997061,0.606652307,0.875474942,0.900780404,0.370723187,0.698538231,0.65084172,0.958114763,0.667682216,1.443546127,0.708641998,0.348165463,0.92769927,0.936271088,0.855394817,0.734728884,0.623843462
478,0.682886703,0.574609461,0.826223787,0.850971691,0.352658944,0.659455622,0.615264993,0.904257525,0.631344402,1.375300372,0.669299092,0.329536964,0.878242189,0.886683974,0.810064952,0.693536304,0.587850953
483.1,0.649903163,0.545695585,0.782421701,0.806907502,0.338667853,0.624464026,0.581979256,0.856214156,0.599027488,1.310093022,0.635358476,0.314158459,0.832081378,0.843817221,0.76729304,0.657954268,0.556831006
488.1,0.618643466,0.519947569,0.742070105,0.766494197,0.325188332,0.593113041,0.552461135,0.81083298,0.568991181,1.250714961,0.602966514,0.299536469,0.789504081,0.801917059,0.728412573,0.62290571,0.52773335
492.8,0.587961807,0.495343242,0.704214105,0.727410541,0.312208251,0.562497482,0.523675011,0.767920567,0.541403047,1.194606234,0.571421006,0.286665995,0.74972932,0.762773489,0.69005476,0.589809183,0.500289664
497.7,0.557597827,0.469975517,0.667348094,0.68887522,0.296639176,0.533154046,0.496332041,0.726853531,0.51394486,1.138271048,0.542820886,0.272865724,0.710776822,0.726754636,0.653848056,0.559004746,0.473839886
502.6,0.530245511,0.4457078,0.633549953,0.65368961,0.281475057,0.507182842,0.472054685,0.689770035,0.489379715,1.087720633,0.516237064,0.261027019,0.676114427,0.692856577,0.620688043,0.531530701,0.450402055
507.8,0.502400956,0.421420525,0.601172189,0.618073727,0.26555276,0.481215157,0.447520814,0.653667372,0.464068108,1.040237761,0.489509963,0.248206395,0.643034526,0.658157805,0.588999801,0.50281369,0.426365334
513.2,0.475574963,0.399068286,0.568720859,0.584640624,0.249777812,0.455015524,0.424342234,0.618622516,0.439087497,0.993728369,0.464432302,0.236148411,0.609927141,0.626175531,0.558644441,0.475525069,0.402871047
518.5,0.451942767,0.377891955,0.539457357,0.55439612,0.23698649,0.431426604,0.402527928,0.585819009,0.416800921,0.950206478,0.441515672,0.224734118,0.579477273,0.596118688,0.529086554,0.451570405,0.381508793
523.5,0.430663139,0.359819906,0.513544324,0.526858381,0.225865458,0.411235495,0.383406822,0.556752643,0.396686126,0.911517897,0.420578923,0.214804966,0.552572204,0.568337881,0.504630956,0.42950198,0.362505711
528.9,0.409348421,0.341667764,0.488088732,0.500356948,0.215737737,0.390552323,0.364394999,0.527980399,0.377290056,0.873852651,0.400095271,0.204479399,0.525711333,0.542146671,0.479280588,0.407615648,0.343870928
533.7,0.388784714,0.324344706,0.46368383,0.475395251,0.206042494,0.371314822,0.346275367,0.501255372,0.358994529,0.837301394,0.381411948,0.19450244,0.500628081,0.517834521,0.455545991,0.388359238,0.326568249
538.5,0.370775907,0.309136775,0.441759525,0.452779363,0.198004861,0.354232861,0.330057315,0.477566052,0.342209521,0.805350623,0.364265273,0.1857012,0.478120696,0.494550983,0.434934971,0.370036485,0.310929237
543.7,0.351989284,0.29322071,0.419690875,0.429767814,0.188733107,0.336611697,0.313883898,0.453736748,0.325255475,0.773538967,0.347030004,0.176599571,0.455536224,0.471710122,0.413865575,0.351941252,0.295375436
548.5,0.334211106,0.277743185,0.398422963,0.408203684,0.180374238,0.319611758,0.298469673,0.431327565,0.309375933,0.744035244,0.331101465,0.167770348,0.434557793,0.451082987,0.394452208,0.335545783,0.280331742
553.6,0.318335555,0.264095746,0.379449083,0.388959906,0.172917085,0.304209045,0.28408181,0.410826168,0.294518858,0.716911147,0.316822442,0.159659184,0.415031271,0.431203019,0.376529799,0.320689211,0.267053185
558.7,0.303292554,0.251272187,0.361060072,0.369978712,0.165466361,0.289393197,0.270583916,0.391391737,0.280636954,0.691439574,0.302371223,0.151769281,0.397101414,0.412197105,0.359227349,0.305700343,0.253883666
563.9,0.288886476,0.239153358,0.343940768,0.35265903,0.158362549,0.275242733,0.257469755,0.372923972,0.267396769,0.666867825,0.289227619,0.144035352,0.379978119,0.395231663,0.343078287,0.291493226,0.24139757
569,0.276677276,0.228561225,0.328044128,0.337213525,0.152388168,0.262777359,0.246004341,0.355711614,0.255526508,0.643863536,0.277391372,0.137168844,0.364060034,0.379626195,0.328349119,0.278805762,0.230307237
573.4,0.265916805,0.219321843,0.313708636,0.323348893,0.14726819,0.251597735,0.235616936,0.33988806,0.245100165,0.623295753,0.26612536,0.131311248,0.349866872,0.365215557,0.315079289,0.266292123,0.220141469
578.1,0.256771224,0.212412227,0.301261775,0.311064239,0.143273311,0.241740321,0.22686829,0.326125943,0.236436934,0.604618908,0.256406419,0.126769592,0.337370834,0.353211951,0.303173348,0.255734453,0.211410583
582.7,0.248123906,0.205373581,0.289047705,0.29926367,0.139342611,0.23261102,0.218671025,0.312718949,0.227687035,0.585994162,0.247085689,0.122049416,0.324803237,0.341121129,0.292108302,0.245423654,0.203463978
587.1,0.239966932,0.198527608,0.277617055,0.288059154,0.13540426,0.224271918,0.210823324,0.299867484,0.21937375,0.568690287,0.238219905,0.117812978,0.313160182,0.32973889,0.281891765,0.235530507,0.195887625
591.5,0.230706416,0.191014244,0.265362372,0.275700042,0.130338917,0.215062426,0.202307158,0.286448963,0.210151934,0.551036799,0.228910736,0.112433048,0.3013701,0.317649323,0.270196537,0.224831309,0.187435191
596.1,0.222391883,0.184124847,0.254049162,0.264656365,0.126238751,0.206875953,0.194533451,0.274134647,0.201874818,0.534409422,0.220485537,0.107888368,0.29001357,0.307208455,0.260057453,0.215126971,0.180111713
600.6,0.215256267,0.178334479,0.244389447,0.255539243,0.123299146,0.19946253,0.18788576,0.263117504,0.194838066,0.519302678,0.21303152,0.104221903,0.279767507,0.297068505,0.250751405,0.206905391,0.173447899
604.8,0.210282533,0.174980666,0.237114682,0.248283997,0.121969879,0.193825368,0.182879599,0.253998961,0.190013568,0.506766519,0.207305371,0.102551971,0.271527609,0.288863487,0.24359859,0.20039341,0.168327433
609,0.202284916,0.171570614,0.230035129,0.242299394,0.119200258,0.188993431,0.176114854,0.245148176,0.184448308,0.492341697,0.201598168,0.097941439,0.267312208,0.279329991,0.237871379,0.191121684,0.16352236
613.7,0.198516244,0.169088901,0.223682321,0.236693752,0.119410652,0.183695743,0.171805667,0.23657346,0.180947007,0.479589239,0.195939563,0.097327796,0.258549342,0.272626887,0.230786522,0.185277743,0.158452568
618.7,0.193384998,0.165477871,0.216249476,0.229702523,0.118487081,0.177513305,0.166257884,0.226630441,0.175986004,0.465537105,0.189102907,0.09539919,0.248994847,0.264247103,0.222882128,0.178182037,0.15260521
623.4,0.188725874,0.162508515,0.209428925,0.223487091,0.117846383,0.172079967,0.161154896,0.217783337,0.171504471,0.45302872,0.18276012,0.093406913,0.240400789,0.256231774,0.215488581,0.171507215,0.147835933
628,0.183735339,0.158864639,0.202337995,0.217241378,0.116726709,0.166241314,0.156046013,0.208755531,0.166915304,0.440825972,0.176471642,0.091559261,0.231399299,0.248523071,0.207742788,0.165337389,0.142483757
632.7,0.179001296,0.155091467,0.195540725,0.211030655,0.115566046,0.160797348,0.150665336,0.200457902,0.162157286,0.428987392,0.170849638,0.089419069,0.222913842,0.241287934,0.199889381,0.159448884,0.137679907
637.2,0.173839749,0.151347301,0.188666856,0.204355211,0.114078126,0.155682331,0.145612677,0.191866106,0.157463947,0.417795089,0.164949723,0.08740202,0.215062932,0.233479269,0.193336124,0.153276275,0.133143303
641.8,0.168854146,0.147430335,0.181600703,0.198052378,0.112613362,0.150291336,0.140275587,0.183587228,0.152967839,0.407269919,0.159204394,0.085118237,0.20696679,0.226614485,0.185972879,0.147131344,0.128460169
646.6,0.166006109,0.145480106,0.176824993,0.193977963,0.113015884,0.146355868,0.13634297,0.176879819,0.150190039,0.398225344,0.155242496,0.084569453,0.200127653,0.221301116,0.180857716,0.142633215,0.124789935
651.2,0.166395297,0.147199535,0.174793739,0.193121376,0.116096449,0.144502135,0.134275116,0.171807328,0.1502019,0.390488225,0.152348752,0.08588303,0.195126359,0.217488018,0.177595493,0.139366745,0.122453218
656,0.171500919,0.153746762,0.176869112,0.197350808,0.122948016,0.145012003,0.134195255,0.169181805,0.154024826,0.38486459,0.15109967,0.089986771,0.191863636,0.216767938,0.177066741,0.137750288,0.122113954
660.6,0.181959513,0.164911936,0.183083688,0.207039291,0.134004288,0.148156753,0.136877722,0.169450483,0.162081403,0.381811766,0.15196763,0.096892631,0.190439972,0.219588153,0.179100391,0.138843351,0.123366251
665,0.193396911,0.177379827,0.1905293,0.21776131,0.146228282,0.152256474,0.139924437,0.170612397,0.171254523,0.379299374,0.153535624,0.104302417,0.190200941,0.222846887,0.18249982,0.140658973,0.125631617
669.6,0.200562936,0.185748627,0.194719183,0.224625158,0.154766221,0.154062931,0.141845824,0.170334462,0.177210259,0.376078938,0.153702353,0.108844336,0.188808722,0.22379922,0.183366742,0.140580557,0.126904333
674,0.199685627,0.185450916,0.192510463,0.223670242,0.156592138,0.151755096,0.139887964,0.166522317,0.17639083,0.370617624,0.151492655,0.109036031,0.18498008,0.221179305,0.180042358,0.137902005,0.125065235
678.3,0.190208176,0.175946369,0.182855408,0.212573331,0.150688068,0.144956293,0.133734056,0.158867275,0.168261498,0.360943942,0.146331496,0.103702159,0.177987423,0.213703839,0.173037,0.132132136,0.120034677
682.7,0.173503425,0.159763335,0.16778422,0.19377702,0.13821498,0.135041635,0.124910489,0.148245591,0.154168228,0.348104725,0.138267041,0.095169597,0.169226013,0.201250956,0.162139786,0.123527761,0.113351526
686.6,0.154272389,0.140387788,0.149909958,0.17192891,0.122107101,0.123295951,0.114561266,0.13594395,0.13730691,0.334158405,0.12890129,0.08492929,0.158684552,0.187182753,0.148499549,0.113762046,0.105065167
690.8,0.136717785,0.123030282,0.133299165,0.151179791,0.107007972,0.112500395,0.104677839,0.124425335,0.121157662,0.319617318,0.120331142,0.075291631,0.148695911,0.173966925,0.136186177,0.104664672,0.097280012
694.7,0.122454695,0.108630045,0.11911479,0.133680823,0.094665257,0.103655724,0.096410028,0.114447018,0.107491896,0.307269531,0.112634263,0.066985429,0.140255378,0.161215311,0.12586721,0.096402739,0.091330276
698.4,0.111859544,0.098082754,0.10789232,0.120672607,0.085070095,0.096420104,0.089118875,0.10559525,0.097037974,0.296193234,0.1055165,0.060377092,0.132792085,0.151752279,0.116353757,0.089065076,0.086017729
702.3,0.104629299,0.090792881,0.099790624,0.111329783,0.078702771,0.091462253,0.084006072,0.098915611,0.089302959,0.286818327,0.100662791,0.055956457,0.126833853,0.145185226,0.110442287,0.08402128,0.082599449
706,0.099491013,0.086279442,0.093740358,0.104380784,0.074650415,0.088436396,0.079973278,0.093497274,0.083818213,0.27818907,0.09674024,0.052519579,0.121961487,0.139402834,0.106114826,0.07989391,0.080449329
709.7,0.094645321,0.082348743,0.088321293,0.098101681,0.071162043,0.085585311,0.076068286,0.087886753,0.079278226,0.269361809,0.092258405,0.049193024,0.1175674,0.134458768,0.101711121,0.075465398,0.079562331
713.2,0.090945009,0.077929459,0.082717856,0.092670669,0.067263972,0.082257545,0.071998026,0.082364118,0.074160937,0.261199118,0.08775907,0.045548018,0.112213859,0.13085528,0.097618528,0.071023799,0.076917404
716.8,0.08914421,0.07605626,0.079960746,0.088838907,0.065847084,0.081879278,0.069523913,0.079196047,0.071830702,0.253707918,0.086021202,0.043948962,0.109455777,0.127980389,0.095683309,0.069120822,0.076616691
720.1,0.086391248,0.073079823,0.075778939,0.083680777,0.063147627,0.08073797,0.066926781,0.074794293,0.067842885,0.246394094,0.082396144,0.041394778,0.106340353,0.123650274,0.093553307,0.065195172,0.076370484
723.7,0.082618509,0.069564477,0.071304066,0.078590542,0.059745982,0.078581686,0.064052566,0.070173228,0.06428284,0.238074139,0.079544147,0.039168738,0.101485682,0.120741828,0.090128127,0.06182375,0.07438583
726.8,0.080870428,0.066747702,0.067343479,0.075405701,0.057459467,0.076176678,0.059565565,0.066107158,0.061262172,0.230147257,0.076348465,0.035886957,0.097676726,0.117817155,0.088435922,0.059172476,0.072502109
730,0.07366479,0.060600436,0.061087148,0.06781451,0.051663296,0.070274537,0.053833969,0.059328674,0.054561856,0.219951747,0.068939461,0.0290992,0.091183118,0.110226446,0.083730397,0.051611254,0.066884549
733.4,0.068810065,0.056406107,0.055442426,0.063538979,0.047141805,0.063263453,0.048762338,0.053526839,0.050544141,0.212727664,0.063292444,0.024534463,0.085402619,0.105774547,0.079309451,0.04750809,0.060851512
736.7,0.066931475,0.0534082,0.052459473,0.060504217,0.045545869,0.057849337,0.045681146,0.050295167,0.048515755,0.206995156,0.060439747,0.022120366,0.080364584,0.102556036,0.077906644,0.045719343,0.055218127
739.3,0.065255281,0.053141448,0.052012457,0.058687807,0.04584234,0.055476501,0.044706597,0.049909377,0.048590816,0.205181549,0.059255966,0.021968571,0.078921831,0.099831093,0.078048916,0.045422382,0.05224973
742.4,0.065142163,0.053664433,0.052585886,0.059221049,0.046878159,0.053604658,0.045355484,0.050656818,0.049907212,0.203759312,0.058510099,0.022672438,0.078361869,0.0988974,0.077184718,0.045987299,0.051540091
745,0.064727587,0.053574805,0.051337462,0.059206115,0.046947537,0.050852685,0.044588414,0.050366679,0.0504722,0.201448571,0.057552767,0.02304674,0.074942315,0.099154498,0.075828179,0.046746005,0.048310229
