wavelength,Mud_2019,Sand_2019,Eelgrass_2019,CCA_2022,Rock_2022,Saccha_2022,Agar_2023,CCA_2023,Palma_2023,Rock_2023,Saccha_2023,SacchaBri_2023,Sand_2023
400,0.067689078,0.096740005,0.082684808,0.074504905,0.059712415,0.014508248,0.009662497,0.075660757,0.007235267,0.09226326,0.016298784,0.041837306,0.04528434
410,0.068375434,0.098628925,0.08257655,0.068328605,0.059928563,0.011824473,0.009091717,0.070528048,0.006464509,0.091215479,0.014660902,0.039074421,0.045194853
420,0.0695984,0.10113246,0.081908248,0.063502627,0.060334986,0.0099957,0.008842983,0.066715375,0.006026226,0.093806179,0.013588195,0.037554765,0.046077473
430,0.071165148,0.104348872,0.080458413,0.061355529,0.0619541,0.008826964,0.008685662,0.065319266,0.005888901,0.099081681,0.013163132,0.037022342,0.047625197
440,0.073045724,0.1077725,0.08022681,0.05933666,0.06409349,0.008175155,0.008746649,0.06422479,0.005893364,0.104906198,0.012791636,0.037414122,0.049142816
450,0.075085577,0.110989808,0.080815936,0.067539379,0.068353093,0.008932249,0.009011092,0.072056342,0.006795165,0.112885737,0.01343135,0.038655522,0.052349419
460,0.077044893,0.113856486,0.080740804,0.07727334,0.07237039,0.009520651,0.009283732,0.082068135,0.008195819,0.120636816,0.013972387,0.039509452,0.055605789
470,0.078941263,0.116160935,0.080391394,0.078119828,0.076065434,0.010657083,0.009611931,0.085553303,0.009180395,0.127820804,0.014720979,0.040701354,0.057756514
480,0.080638899,0.118894599,0.080818459,0.078584097,0.080182919,0.012671461,0.010125735,0.087382959,0.010092018,0.135641069,0.016125006,0.042914326,0.059600334
490,0.082611103,0.121568879,0.080886296,0.071293786,0.083434736,0.013409616,0.010435522,0.081805223,0.009085459,0.14252729,0.016867009,0.044114127,0.060432349
500,0.085779136,0.125446604,0.08383199,0.069401755,0.088014724,0.0146355,0.01066891,0.081068572,0.008780278,0.150350514,0.017380144,0.045192505,0.06254714
510,0.089924789,0.129683041,0.093524982,0.0808253,0.094507627,0.017711175,0.011181954,0.094826239,0.011362999,0.160079459,0.018769358,0.047696726,0.066040099
520,0.094204315,0.134332581,0.109533373,0.087724477,0.101675638,0.022024021,0.011877307,0.104954587,0.013786707,0.170254164,0.020650721,0.051220831,0.069388819
530,0.099411329,0.139148147,0.126116069,0.085734406,0.107900568,0.027033957,0.012585266,0.105045484,0.013542902,0.179647341,0.02324779,0.05570251,0.071658582
540,0.105409993,0.144200072,0.13513184,0.082825449,0.112214512,0.033930311,0.013590455,0.10390029,0.012630486,0.1875518,0.02674856,0.061050252,0.072794721
550,0.111508785,0.149008004,0.14079149,0.08235852,0.117436012,0.046569315,0.015237303,0.104955441,0.012509843,0.196098608,0.031756717,0.068844374,0.07331109
560,0.116779969,0.154278208,0.142969804,0.081492395,0.12381868,0.070470679,0.018448087,0.103739228,0.013123524,0.205423156,0.040685031,0.081208667,0.074406879
570,0.12046216,0.159335467,0.137942725,0.081377382,0.129061559,0.100984078,0.022916594,0.101472545,0.013663295,0.212918214,0.051081412,0.09558313,0.07604442
580,0.122572733,0.163408164,0.12921845,0.116952394,0.135357222,0.11474044,0.025987462,0.128385863,0.021408128,0.218884097,0.055964396,0.102425177,0.081907746
590,0.124258199,0.16619167,0.124003836,0.166155445,0.139212362,0.11750871,0.027347253,0.155798177,0.032503245,0.223433366,0.056995558,0.104576443,0.086844242
600,0.12498603,0.168310898,0.120800786,0.189784309,0.141993393,0.138879593,0.031278536,0.166925154,0.039948781,0.22510345,0.063211353,0.112799918,0.088817725
610,0.12430152,0.169436281,0.116621967,0.180676984,0.140989422,0.123065345,0.029062833,0.160835288,0.03773794,0.225058458,0.057734433,0.108603635,0.086200816
620,0.123173476,0.169868217,0.111482181,0.161153588,0.13865454,0.09029931,0.024038669,0.150351327,0.031481922,0.225598992,0.046669873,0.096328795,0.084956863
630,0.123205896,0.170374968,0.109814574,0.158481058,0.139308366,0.080229598,0.022784897,0.15085344,0.031228194,0.227626956,0.043261893,0.091970369,0.085643452
640,0.12395894,0.170910293,0.10291351,0.171600705,0.139430059,0.077953699,0.022643059,0.16174008,0.036126798,0.229218006,0.042625613,0.091973066,0.086936703
650,0.124483346,0.171894221,0.093731793,0.183918894,0.140693139,0.092588507,0.025279113,0.170453277,0.041169691,0.229580891,0.047092504,0.098029733,0.088111594
660,0.11957053,0.170400879,0.088378036,0.156050218,0.134219112,0.051035573,0.019912702,0.14929517,0.034725632,0.223530444,0.032946988,0.074755547,0.084936528
670,0.111190953,0.168049611,0.083583463,0.107184271,0.124888608,0.040504257,0.023315099,0.108900548,0.022407173,0.214293127,0.026123516,0.056477694,0.078508029
680,0.109874714,0.169509363,0.086701858,0.102954741,0.141824068,0.085143779,0.043905032,0.100367335,0.022885475,0.227994855,0.039758387,0.070082711,0.079156572
690,0.121231338,0.173446608,0.111979633,0.140083675,0.17820099,0.180871631,0.074790495,0.12970645,0.035611749,0.259789726,0.073677239,0.118578821,0.087302927
700,0.136816916,0.177212652,0.181864409,0.259664952,0.211252339,0.473640019,0.146275356,0.213384771,0.078737274,0.273917912,0.157168721,0.225688576,0.104925017
710,0.144659468,0.178557878,0.287308753,0.539335153,0.25138739,0.867160175,0.296256703,0.359727789,0.232606128,0.295608859,0.267540761,0.336413924,0.128308803
720,0.150097412,0.179438783,0.386215013,0.999654853,0.358955428,0.999654853,0.645624098,0.666439594,0.680193402,0.365021072,0.466542809,0.501382144,0.172721249
730,0.152735526,0.180150281,0.440955824,0.999654853,0.563406592,0.999654853,0.999980491,0.818335325,0.989598982,0.38460428,0.656464689,0.685774705,0.202047479
740,0.154120185,0.180786855,0.463789867,0.999968618,0.514412816,0.999928997,0.999754853,0.697519385,0.87972568,0.369584492,0.643261903,0.655488208,0.182974821
750,0.156098736,0.181752387,0.479560825,0.999968618,0.44111005,0.999925174,0.916053454,0.617109976,0.780703266,0.398647598,0.581943118,0.582327504,0.153221588
