,X,X1.25,X0.75,X1,X0.5,X0.75,X1.75,X0.75,X1,X1.5,X0.75,X1,X1.5,X1.25,X0.75,X1,X1.25,X1
1,wavelength,MAN-F21,MAN-F22,MAN-R22,MAN-R23,MAN-R25,MAN-F0,MAN-F03,MAN-F08,MAN-F14,MAN-R12,MAN-R13,MAN-R15,OUT-R07,OUT-R08,OUT-R09,MAN-R06,MAN-R07
2,399.1,1.83717729,1.434525336,2.339758388,1.617741025,0.773724683,1.413560312,0.906550552,2.505334565,1.563724505,3.427380834,1.221912877,0.799022701,2.410557247,1.185558097,1.782185156,1.80567428,1.666198987
3,403.2,1.759965832,1.371967887,2.241435081,1.548009788,0.742213172,1.362220545,0.87817653,2.404000318,1.482063209,3.331081884,1.169295431,0.768652173,2.307404283,1.136313884,1.698497275,1.735569074,1.580747158
4,407.5,1.675632613,1.302086218,2.127351533,1.460776595,0.72090344,1.296800016,0.828204988,2.27069033,1.400890984,3.16885698,1.11799385,0.732754454,2.185014095,1.083893978,1.626366343,1.648572597,1.510221756
5,411.7,1.585428193,1.241669164,2.011504801,1.383492541,0.690289121,1.230829544,0.789429252,2.138299431,1.324959957,3.013957725,1.05721489,0.694188375,2.06785426,1.023996223,1.535005854,1.549000381,1.424397353
6,415.5,1.505764279,1.180656202,1.899206266,1.316892754,0.663917914,1.16873829,0.753744083,2.016868803,1.254186147,2.861941578,1.004265873,0.665405368,1.956972452,0.976085401,1.446143735,1.465992869,1.343320688
7,420.3,1.417448611,1.11343036,1.784013302,1.237409071,0.633439316,1.103721462,0.716898394,1.893215163,1.178520874,2.710131259,0.95001748,0.626641909,1.834209048,0.919387746,1.36406862,1.376155661,1.260197431
8,425.3,1.336574025,1.054511866,1.677120939,1.165101596,0.608041389,1.036575924,0.673923198,1.773571782,1.108778982,2.562182807,0.893236953,0.589514117,1.719111722,0.870335615,1.288431626,1.289288898,1.181111711
9,429.9,1.260783925,0.999378602,1.578000469,1.099034847,0.581527718,0.9789771,0.639183094,1.661264197,1.044242235,2.415253204,0.841402954,0.558517139,1.615464877,0.817935273,1.206492481,1.209814364,1.103916476
10,434.3,1.184352002,0.945592181,1.475031363,1.033448657,0.555371665,0.922633156,0.606264412,1.556629535,0.983451118,2.279933865,0.788990881,0.526225338,1.51338337,0.775315093,1.13450604,1.133481549,1.034652543
11,438.9,1.113461284,0.88827252,1.382591389,0.968149073,0.527319332,0.864027305,0.569172372,1.452906889,0.922666309,2.148962764,0.741801333,0.495709888,1.416084894,0.727650303,1.068620726,1.056535695,0.970619847
12,443.3,1.048470541,0.839448017,1.297471103,0.909890498,0.501111334,0.814768206,0.538118444,1.36337565,0.867379155,2.025523185,0.701896416,0.469788216,1.331033085,0.686968342,1.001322664,0.99333947,0.906887839
13,448.6,0.981367364,0.787710844,1.214471964,0.852869956,0.473143262,0.764694777,0.504754103,1.278070567,0.813382581,1.913962896,0.657266886,0.441434455,1.249285934,0.644298632,0.93820921,0.929321664,0.846785962
14,453.4,0.922560291,0.742700767,1.14108398,0.800137572,0.448867175,0.719665511,0.475411302,1.19835931,0.765690449,1.810565949,0.620438509,0.416699739,1.172209613,0.607205517,0.886568349,0.871578768,0.79559501
15,458.2,0.869798168,0.702158319,1.072831325,0.752304505,0.427095031,0.678640198,0.449978761,1.124910133,0.721546505,1.716548707,0.585730559,0.394175011,1.103131129,0.573074341,0.831887777,0.819882321,0.746200492
16,462.9,0.818671082,0.663522206,1.010452826,0.709944739,0.405426551,0.642686651,0.426331674,1.060111733,0.681453986,1.631650683,0.553248906,0.373854599,1.040514384,0.540836986,0.784194191,0.771512237,0.701388311
17,467.6,0.772643184,0.626124637,0.952626071,0.667503324,0.385439954,0.606799649,0.401989779,0.999526814,0.643282149,1.551568396,0.523789084,0.35295912,0.981999336,0.510792994,0.739887828,0.727121162,0.661437655
18,472.7,0.728586178,0.590815074,0.898725668,0.628346551,0.365828957,0.574019059,0.38081892,0.941402568,0.607007385,1.477927859,0.49631026,0.333874517,0.92769927,0.482834307,0.700230772,0.685787427,0.622788537
19,478,0.687952863,0.558609355,0.847998866,0.59297126,0.347371205,0.542486956,0.360609617,0.889385723,0.572508268,1.410416638,0.469822733,0.315985019,0.878242189,0.453097391,0.659318103,0.648776581,0.586800632
20,483.1,0.651915351,0.529522512,0.802880637,0.560812881,0.33252445,0.51491879,0.342435334,0.842089156,0.542554218,1.346047212,0.447282239,0.30092458,0.832081378,0.430494481,0.625488736,0.614356014,0.55568378
21,488.1,0.619389012,0.504236531,0.760641798,0.531098546,0.319180354,0.489603464,0.325864496,0.796858038,0.514730475,1.285428437,0.426091812,0.287285896,0.789504081,0.407702407,0.594196317,0.581938058,0.526666167
22,492.8,0.58766722,0.479359066,0.721695986,0.503793128,0.305666559,0.465711013,0.311048913,0.754847315,0.489118145,1.226246395,0.405215919,0.275037757,0.74972932,0.386383797,0.561686759,0.552198679,0.499049839
23,497.7,0.555755258,0.453891792,0.682745402,0.476490436,0.289936668,0.442643366,0.29607196,0.715144747,0.463316966,1.169646337,0.385221119,0.262108065,0.710776822,0.364939402,0.532615567,0.524087211,0.472685065
24,502.6,0.527030576,0.430080191,0.648081905,0.451171579,0.274681206,0.420716333,0.281165056,0.67797563,0.440355105,1.117886372,0.367441864,0.250832118,0.676114427,0.346050083,0.505557651,0.497252428,0.449203723
25,507.8,0.498520562,0.405714834,0.613977559,0.426528883,0.258074957,0.398904532,0.266145774,0.642397868,0.416511189,1.068166805,0.349106278,0.238602948,0.643034526,0.326138073,0.479019353,0.471394701,0.425035368
26,513.2,0.470716728,0.382975817,0.580699475,0.402316049,0.242048298,0.377724699,0.252208026,0.60837588,0.393325166,1.020743936,0.330783291,0.22721729,0.609927141,0.307048336,0.452266362,0.446482937,0.401523242
27,518.5,0.446222666,0.361872617,0.550347929,0.380944762,0.22888718,0.358057599,0.23958657,0.575580166,0.373179387,0.976564657,0.315641514,0.216540381,0.579477273,0.290379871,0.430029597,0.423452928,0.380141403
28,523.5,0.423705349,0.343749674,0.523546465,0.361659343,0.217754541,0.341242786,0.228079936,0.547060077,0.354978235,0.936867436,0.301500454,0.206966413,0.552572204,0.275097449,0.409834939,0.403063923,0.361104293
29,528.9,0.401587716,0.325451854,0.497048553,0.342945687,0.206871223,0.324664792,0.217318669,0.518768745,0.337035859,0.898890451,0.287105561,0.1969707,0.525711333,0.259328947,0.388583727,0.383389603,0.342331193
30,533.7,0.380658718,0.30838598,0.472226008,0.324516749,0.19735368,0.309060471,0.20668302,0.492711128,0.320185223,0.862643941,0.273987154,0.187365569,0.500628081,0.245446561,0.369611007,0.364398366,0.325071488
31,538.5,0.362131725,0.293249515,0.449801155,0.308012899,0.189056204,0.295398219,0.19712133,0.468923672,0.305102957,0.830553006,0.262655833,0.179132122,0.478120696,0.232563957,0.352059547,0.347582265,0.309423883
32,543.7,0.342816557,0.277118149,0.427340508,0.290890324,0.179782762,0.280869267,0.18688444,0.445399818,0.289574511,0.798659246,0.250469944,0.169971545,0.455536224,0.219240808,0.333871473,0.330824645,0.293753513
33,548.5,0.324620429,0.261729444,0.405815699,0.274932222,0.170942399,0.266964789,0.177060903,0.423609651,0.274768471,0.769270215,0.238888899,0.16170334,0.434557793,0.206974006,0.316617932,0.315039821,0.278730963
34,553.6,0.308430459,0.24802332,0.386219808,0.260231253,0.163314362,0.254197202,0.168201019,0.402981409,0.261035982,0.741988935,0.229315559,0.153826649,0.415031271,0.195670881,0.301825566,0.300345823,0.265394495
35,558.7,0.292844003,0.235121172,0.367611411,0.246287577,0.155658122,0.241853478,0.159723236,0.383810451,0.24812897,0.716330746,0.219144114,0.146095719,0.397101414,0.185296557,0.287203602,0.286648179,0.252143897
36,563.9,0.278457633,0.223043743,0.34997812,0.233129569,0.148354045,0.230413571,0.15155625,0.365837899,0.235644549,0.692133151,0.20998501,0.1386353,0.379978119,0.175104443,0.27303207,0.273649148,0.239653031
37,569,0.265495977,0.21247132,0.333549866,0.221514944,0.142522809,0.219993831,0.144362655,0.348746309,0.224544565,0.669452169,0.201697226,0.13212069,0.364060034,0.166899532,0.261348575,0.261150739,0.228515001
38,573.4,0.254407675,0.203346127,0.318745725,0.211127584,0.137469673,0.210772952,0.138426336,0.333101757,0.214617774,0.64892972,0.194232604,0.12643912,0.349866872,0.159640833,0.250868237,0.250400549,0.218347376
39,578.1,0.244909637,0.196383346,0.305748185,0.202846767,0.133524909,0.203027957,0.133994851,0.319982883,0.206160969,0.630819907,0.188223866,0.122254792,0.337370834,0.153761257,0.241278847,0.240743774,0.209616493
40,582.7,0.235791314,0.189503228,0.292834136,0.194440158,0.129324741,0.195516974,0.129072696,0.306653304,0.197644586,0.612825939,0.182135585,0.117730105,0.324803237,0.148459406,0.232528183,0.231069205,0.201672241
41,587.1,0.227310491,0.182779426,0.281018217,0.18636876,0.125430141,0.188666027,0.124606812,0.294000778,0.189630835,0.59574339,0.176272435,0.113785798,0.313160182,0.143356155,0.224653121,0.221990398,0.194142145
42,591.5,0.217755821,0.17514971,0.268069642,0.177455649,0.120286285,0.180766725,0.119243968,0.280815646,0.180650694,0.578298587,0.169423651,0.10841176,0.3013701,0.136521243,0.215184706,0.212025112,0.185580269
43,596.1,0.209122404,0.168439022,0.256476279,0.169654806,0.116217156,0.174069878,0.114358641,0.268883725,0.172749733,0.562031587,0.16344508,0.104219609,0.29001357,0.130927621,0.206639352,0.202919164,0.178352006
44,600.6,0.201638706,0.162833304,0.246225637,0.162812754,0.113068544,0.16830599,0.110627242,0.257882367,0.166108178,0.546938002,0.15859079,0.100827057,0.279767507,0.126136401,0.199712554,0.195008984,0.1716405
45,604.8,0.196740855,0.159661137,0.238488207,0.158588749,0.111889442,0.164441037,0.109287434,0.249302559,0.161929616,0.53462598,0.155077052,0.099402568,0.271527609,0.123262403,0.194593053,0.189112796,0.166595102
46,609,0.188642867,0.15583944,0.230105952,0.154553137,0.107816273,0.162860152,0.109599657,0.240587333,0.157293915,0.521902836,0.151518053,0.094921789,0.267312208,0.12157896,0.190321925,0.181742707,0.161680473
47,613.7,0.184328475,0.153603303,0.223385339,0.150948115,0.108407098,0.159973728,0.10905351,0.232622,0.154437148,0.509306635,0.149434642,0.094482155,0.258549342,0.119811492,0.186263007,0.17670532,0.156681432
48,618.7,0.178613731,0.150177044,0.215445345,0.146286747,0.107706203,0.155557591,0.107567096,0.22291535,0.150291256,0.495728799,0.145854733,0.092712447,0.248994847,0.116787884,0.180387106,0.170442402,0.150854624
49,623.4,0.17357282,0.147193744,0.208229485,0.142250538,0.107119185,0.151769945,0.105886098,0.214506489,0.146373201,0.483132673,0.142537951,0.091242903,0.240400789,0.11446053,0.17487017,0.164596065,0.146090424
50,628,0.168148169,0.143622627,0.200910532,0.137723594,0.106049564,0.147986909,0.104085204,0.205955792,0.142366252,0.4710405,0.138899503,0.089535815,0.231399299,0.111446414,0.169784293,0.158689987,0.140742504
51,632.7,0.16288179,0.13995444,0.193804367,0.133423793,0.105012875,0.144074929,0.102298275,0.197722864,0.138297203,0.459819194,0.135532855,0.08772259,0.222913842,0.108817245,0.164631683,0.153200278,0.13593736
52,637.2,0.157515229,0.136204178,0.186734887,0.128933489,0.103571486,0.140377742,0.100193298,0.189214258,0.133973981,0.449402901,0.132238863,0.085847741,0.215062932,0.106012953,0.159004682,0.14752493,0.131393509
53,641.8,0.152192069,0.132387738,0.179673318,0.124219596,0.102110314,0.136724172,0.09774696,0.181326094,0.129697707,0.439610711,0.128758284,0.083680711,0.20696679,0.103047924,0.153975282,0.14185831,0.126701536
54,646.6,0.149160816,0.130599787,0.174557914,0.121718985,0.102887871,0.134393998,0.097028136,0.175012317,0.127336042,0.431499581,0.126766085,0.083248605,0.200127653,0.101915534,0.150399193,0.137635354,0.12308998
55,651.2,0.148936003,0.132452617,0.172212068,0.121914854,0.106277396,0.134334694,0.09772706,0.170319823,0.127651764,0.424670364,0.125996353,0.084942638,0.195126359,0.102267698,0.150466718,0.134338761,0.120763398
56,656,0.153223216,0.13930892,0.173808931,0.126402205,0.113839887,0.137374614,0.101782254,0.168734533,0.131779443,0.419276032,0.127106914,0.089272389,0.191863636,0.106104732,0.152361232,0.133504426,0.120582565
57,660.6,0.162395333,0.150867822,0.179239355,0.135322025,0.125810869,0.143652674,0.109305654,0.17016962,0.140039704,0.416951434,0.130924171,0.096412623,0.190439972,0.113786736,0.157879868,0.135157274,0.121901845
58,665,0.172368546,0.163750937,0.185635865,0.145540738,0.138949414,0.150717394,0.118142501,0.172477384,0.149840327,0.41560884,0.13550888,0.103892563,0.190200941,0.122437581,0.163920404,0.137612274,0.124257883
59,669.6,0.178387166,0.172178809,0.189444702,0.152215604,0.148046101,0.155074166,0.123366571,0.173170768,0.156051456,0.412847948,0.138031438,0.108681416,0.188808722,0.12782102,0.167384064,0.138441074,0.125551617
60,674,0.177359923,0.171955717,0.186961302,0.151315093,0.149781677,0.154121907,0.12377342,0.169838185,0.155479942,0.407586115,0.137423535,0.108779559,0.18498008,0.127794132,0.166147445,0.136250468,0.123670219
61,678.3,0.167693568,0.16221017,0.177010423,0.142210052,0.143408739,0.147127108,0.117942362,0.161705925,0.14769853,0.397202166,0.132761544,0.103381587,0.177987423,0.120935611,0.158277167,0.13043768,0.118499551
62,682.7,0.152012984,0.145558834,0.162293776,0.127643243,0.12998931,0.135706768,0.107509214,0.149982402,0.134078506,0.382114678,0.125276893,0.094861318,0.169226013,0.108940745,0.145748546,0.121898925,0.1116458
63,686.6,0.133726237,0.125835648,0.144618093,0.110401336,0.112616636,0.122232469,0.095098484,0.136727578,0.117764205,0.365380944,0.115511545,0.084534338,0.158684552,0.094429882,0.131189787,0.112152971,0.103200849
64,690.8,0.11732145,0.108212801,0.127904631,0.094373321,0.09632455,0.10960968,0.083420013,0.124143778,0.102139532,0.348507426,0.108042646,0.074992793,0.148695911,0.081268237,0.117950258,0.102587,0.095246346
65,694.7,0.103906188,0.093501356,0.113834172,0.081633166,0.0831842,0.09886103,0.073252096,0.113180618,0.088927533,0.334265856,0.100406944,0.066866792,0.140255378,0.069807206,0.106165112,0.094105828,0.089200733
66,698.4,0.093490504,0.08251526,0.102604886,0.071271964,0.072727606,0.09067626,0.064992982,0.103897212,0.078348119,0.321493757,0.093418589,0.060087804,0.132792085,0.060569827,0.097025425,0.08722475,0.083780512
67,702.3,0.087015307,0.075487277,0.094452217,0.063910763,0.066214228,0.085593666,0.059168206,0.097260732,0.070879736,0.311191764,0.087882337,0.055913565,0.126833853,0.054207273,0.090956793,0.081893595,0.080383796
68,706,0.081959607,0.070948374,0.088450775,0.058482835,0.061986635,0.082227524,0.054388667,0.091243264,0.065240318,0.302158952,0.083414534,0.052452925,0.121961487,0.04979553,0.085697001,0.077816093,0.078191698
69,709.7,0.077134559,0.066917173,0.083027301,0.053634718,0.058323016,0.079824156,0.049698024,0.085990963,0.060145316,0.292881539,0.078480375,0.048920266,0.1175674,0.044687002,0.08062958,0.073585662,0.077326983
70,713.2,0.073451697,0.062583758,0.077641671,0.048424922,0.054316481,0.07693951,0.044407989,0.080420506,0.054617954,0.284444699,0.072500842,0.045166835,0.112213859,0.039856396,0.076102461,0.068953859,0.074699197
71,716.8,0.072312978,0.060737111,0.074552001,0.045492187,0.05284647,0.076443138,0.040951644,0.076931195,0.051644683,0.277854591,0.06889732,0.043533017,0.109455777,0.03701555,0.073597235,0.066557599,0.074369204
72,720.1,0.069066477,0.057475065,0.070498673,0.041502968,0.050230739,0.074905525,0.036083086,0.072512737,0.047268782,0.269473574,0.064086201,0.040719556,0.106340353,0.032145749,0.069662967,0.062786964,0.0741243
73,723.7,0.065771916,0.054118101,0.066072422,0.035737205,0.04677677,0.073804834,0.03095636,0.068427061,0.042666683,0.261404091,0.058896356,0.038518381,0.101485682,0.027053157,0.066055316,0.059588308,0.072097746
74,726.8,0.063509773,0.051264668,0.06189201,0.032145988,0.044750194,0.071630092,0.02533557,0.064003651,0.038857311,0.253796133,0.052965158,0.034971349,0.097676726,0.022552371,0.062408481,0.055505076,0.070214089
75,730,0.057278493,0.04500398,0.05550516,0.026210174,0.038834781,0.064819653,0.017186865,0.056906016,0.031396775,0.243755817,0.043671056,0.028052469,0.091183118,0.015681139,0.054993661,0.048336206,0.064571195
76,733.4,0.052498178,0.040614814,0.04974145,0.020911237,0.03414923,0.059444618,0.010658587,0.051896786,0.026625712,0.236285301,0.036504167,0.023146974,0.085402619,0.009132219,0.050399033,0.044093553,0.058477346
77,736.7,0.050892331,0.03733053,0.045962503,0.018301751,0.032480601,0.054540488,0.007476846,0.048012403,0.024153408,0.23129374,0.03237704,0.020511318,0.080364584,0.005945246,0.047608298,0.040722214,0.052646832
78,739.3,0.049188108,0.03717207,0.045198603,0.017717633,0.032910113,0.051222362,0.007722118,0.047078173,0.024494286,0.228944129,0.031609706,0.019942311,0.078921831,0.005802606,0.045655956,0.040361976,0.049661559
79,742.4,0.048467748,0.037279157,0.045564072,0.019867075,0.033396889,0.05080929,0.009450475,0.048724437,0.026179453,0.227384876,0.032331056,0.021085888,0.078361869,0.006371784,0.045814463,0.041497105,0.048858217
80,745,0.04866387,0.037521307,0.044626495,0.019281753,0.033283242,0.049135832,0.011160743,0.048345972,0.027346575,0.225648543,0.031691826,0.021630471,0.074942315,0.006543703,0.046460734,0.040998943,0.045502271
